ppg1,ppg2,ppg3
115189,308823,442580
115378,308892,442850
115504,309076,442890
115669,309219,442802
115810,309333,443029
116031,309555,443040
116227,309641,443121
116429,310064,443419
116599,310177,443473
116778,310227,443484
116951,310341,443508
117122,310560,443515
117316,310894,443546
117488,310988,443701
117613,311040,443673
117734,311175,443732
117858,311356,443718
118030,311382,443763
117965,310868,443211
117330,309360,441996
116573,307378,440572
116320,306282,439869
116251,306046,439401
116443,306085,439312
116603,306390,439617
116755,306591,439780
116863,306742,439793
117016,307011,439862
117262,307627,440312
117672,308304,440736
118020,308960,441151
118284,309366,441429
118417,309448,441310
118470,309397,441397
118597,309504,441176
118712,309595,441221
118889,309735,441237
119090,310053,441256
119287,310221,441383
119453,310338,441537
119612,310463,441672
119728,310626,441634
119864,310760,441703
119949,310779,441807
120042,311054,441820
120177,311099,441801
120318,311239,441966
120432,311437,441916
120575,311423,442031
120665,311504,442064
120798,311743,441990
120894,311767,442127
121012,311961,441980
121170,311996,441984
121272,312272,442024
121454,312369,441934
121625,312511,442081
121664,312094,441617
121267,310694,440398
120747,309386,439296
120429,308860,438987
120516,308924,438758
120831,309137,438910
121090,309492,439024
121301,309684,439075
121505,309757,439024
121658,309921,439173
121820,310216,439215
122015,310403,439190
122229,310723,439470
122356,310775,439627
122427,310880,439489
122476,310789,439425
122483,310721,439390
122554,310674,439321
122659,310703,439413
122757,310714,439422
122845,310904,439411
122965,311080,439490
122880,311172,439607
122978,311167,439569
123082,311475,439690
123210,311693,439790
123273,311808,439777
123385,311834,439879
123434,311988,439843
123548,311983,439968
123643,312025,439837
123680,312186,439868
123737,312117,440040
123823,312264,439858
123891,312305,439923
123976,312318,440014
124014,312471,439989
124075,312454,439957
124141,312445,439894
123950,311517,439207
123312,309684,437781
122584,308428,437198
122315,307964,436740
122475,308152,437016
122796,308624,437155
123062,309006,437432
123243,309161,437286
123387,309246,437454
123550,309495,437562
123755,309695,437609
123958,310295,437992
124150,310500,437957
124222,310621,438104
124306,310648,437999
124304,310549,438008
124316,310380,437910
124390,310464,437937
124479,310481,437836
124556,310609,437913
124672,310785,437904
124714,310852,438141
124790,310981,437945
124849,311169,438107
124895,311217,438147
124971,311264,438268
125033,311217,438196
125050,311219,438435
125141,311402,438205
125214,311452,438312
125259,311667,438347
125331,311698,438257
125396,311713,438488
125460,311926,438444
125540,311817,438525
125581,311886,438441
125517,311390,438062
125097,309983,436997
124390,308426,435922
123774,307629,435498
123712,307474,435396
123933,307798,435651
124233,308219,435966
124520,308477,436029
124694,308599,436072
124838,308770,436146
125030,309066,436200
125242,309463,436369
125457,309788,436634
125555,309855,436771
125583,309955,436689
125606,309848,436665
125609,309814,436503
125626,309824,436535
125693,309856,436396
125751,309920,436600
125868,310091,436633
125927,310157,436739
126023,310253,436699
126048,310365,436787
126134,310581,436822
126226,310610,436798
126239,310739,437033
126288,310903,437011
126380,310944,436875
126403,311007,437010
126457,311109,436969
126535,311105,436946
126557,311173,436892
126638,311211,437111
126659,311253,436950
126570,310629,436563
126055,309017,435252
125113,307338,434419
124533,306467,433799
124513,306531,433899
124801,306950,434115
125080,307351,434489
125365,307658,434602
125557,307818,434700
125766,307929,434709
125999,308331,435138
126226,308821,435024
126427,309116,435359
126509,309217,435427
126532,309186,435476
126529,309096,435355
126534,309102,435304
126597,309183,435350
126621,309254,435326
126745,309281,435548
126815,309480,435524
126847,309627,435544
126981,309767,435652
127022,309924,435556
127101,309933,435888
127107,310079,435784
127194,310062,435862
127238,310093,435908
127334,310288,436028
127329,310312,435919
127390,310440,435929
127428,310475,436023
127464,310603,435881
127464,310057,435774
126960,308828,434844
126220,307296,433887
125574,306533,433298
125555,306561,433244
125771,306900,433656
126130,307353,433846
126367,307680,433896
126549,307789,434082
126673,307896,434166
126852,308117,434276
127110,308557,434563
127238,308855,434735
127315,308884,434902
127294,309025,434868
127332,308806,434708
127341,308909,434695
127348,308867,434547
127424,308922,434691
127487,309068,434756
127570,309206,434826
127615,309298,434908
127692,309499,434956
127694,309552,435181
127748,309776,435189
127816,309750,435349
127886,309937,435224
127923,309990,435299
127999,310019,435390
128005,310109,435471
128090,310313,435401
128114,310196,435332
128101,310071,435197
127716,308696,434386
126896,307094,433258
126198,306286,432689
126064,306064,432548
126242,306327,432780
126557,306757,433170
126853,307120,433272
127076,307369,433327
127225,307501,433417
127425,307737,433598
127645,308155,433771
127809,308408,433966
127913,308549,434079
127900,308627,434170
127883,308366,434026
127862,308263,433996
127909,308468,433768
127983,308364,434012
128060,308509,433939
128144,308716,434061
128180,309011,434183
128295,308858,434195
128325,309057,434233
128430,309187,434350
128438,309238,434503
128525,309324,434524
128529,309539,434485
128606,309647,434586
128649,309653,434555
128705,309747,434592
128702,309627,434434
128349,308431,433624
127633,306984,432563
126967,306092,431952
126766,305976,431922
126942,306187,432041
127203,306453,432355
127544,307020,432603
127799,307329,432703
127918,307364,432856
128104,307484,433006
128322,308023,433336
128476,308274,433393
128526,308318,433561
128572,308346,433390
128557,308352,433380
128536,308285,433330
128586,308206,433252
128653,308234,433313
128725,308360,433482
128791,308567,433306
128830,308671,433453
128931,308790,433442
128982,308872,433565
129012,308977,433802
129072,309067,433766
129125,309161,433769
129162,309236,433884
129213,309267,433840
129245,309434,433933
129324,309363,433850
129276,309259,433783
128892,307982,433084
128132,306542,431847
127436,305722,431279
127266,305482,431238
127452,305829,431489
127827,306291,431829
128142,306663,431945
128324,306890,432228
128483,306975,432314
128682,307334,432452
128887,307632,432642
129033,307988,432921
129061,308006,432785
129070,307901,432775
129052,307734,432693
129031,307673,432602
129095,307807,432673
129164,307897,432731
129258,307986,432694
129303,308190,432912
129396,308249,433046
129462,308397,432906
129550,308535,432924
129565,308550,433122
129624,308759,433099
129640,308767,433283
129724,308693,433135
129762,308968,433438
129840,309066,433288
129851,309153,433342
129815,308784,433202
129451,307777,432329
128745,306120,431276
128009,305474,430854
127831,305247,430631
128038,305531,430999
128387,306071,431129
128752,306333,431469
128941,306670,431488
129095,306768,431660
129312,307116,431882
129476,307390,432233
129613,307872,432140
129647,307681,432307
129575,307483,432202
129584,307459,432050
129562,307403,432072
129664,307508,432071
129704,307594,432012
129828,307814,432127
129851,307790,432187
129919,308042,432293
130015,308100,432395
130015,308275,432511
130047,308151,432470
130091,308320,432492
130152,308570,432382
130223,308557,432600
130258,308556,432600
130276,308608,432568
130212,308240,432329
129769,306910,431484
128969,305686,430438
128394,305055,430169
128265,305018,430178
128503,305338,430315
128865,305828,430740
129167,306091,430748
129343,306290,430870
129496,306550,431075
129673,306762,431186
129896,307211,431596
129986,307402,431598
130033,307390,431658
129987,307218,431599
129970,307144,431488
129992,307135,431432
130032,307132,431575
130067,307288,431509
130225,307444,431608
130267,307658,431797
130365,307675,431903
130398,307848,431908
130477,307987,431788
130501,307881,431847
130556,308082,431848
130620,308128,432013
130666,308297,432074
130683,308352,432057
130752,308418,431983
130506,307642,431415
129819,306144,430287
129070,305030,429744
128657,304655,429563
128764,304806,429523
129024,305122,429802
129333,305524,430079
129548,305808,430276
129734,305963,430270
129935,306347,430549
130175,306550,430803
130299,306808,430724
130387,307040,430897
130394,306936,430810
130354,306697,430971
130371,306715,430646
130373,306666,430709
130429,306827,430772
130528,306836,431002
130606,307026,430909
130649,307124,431082
130703,307318,431023
130778,307245,431115
130810,307385,431302
130835,307435,431173
130940,307607,431276
130951,307572,431372
131000,307710,431375
131070,307830,431257
131072,307785,431318
130841,307054,430907
130076,305516,429884
129165,304413,428949
128737,303929,428543
128781,304081,428663
129084,304399,429154
129375,304886,429358
129597,305072,429558
129782,305179,429629
130015,305523,429800
130308,305819,429980
130513,306179,430120
130562,306331,430278
130567,306191,430413
130523,306164,430163
130533,306055,430092
130592,306058,430141
130663,306331,430151
130744,306367,430171
130881,306423,430229
130957,306530,430368
130973,306764,430369
131056,306841,430616
131105,306939,430665
131154,306903,430589
131219,307057,430631
131253,307226,430696
131282,307199,430704
131353,307219,430712
131394,307483,430756
131395,307324,430744
131219,306697,430226
130442,305202,429245
129459,303923,428298
128956,303361,428017
128951,303433,428207
129214,303857,428359
129521,304170,428532
129767,304457,428833
129960,304668,429030
130165,304847,429067
130479,305400,429230
130774,305730,429621
130848,305770,429720
130837,305662,429573
130832,305656,429418
130821,305608,429575
130835,305657,429446
130939,305710,429503
131044,305774,429575
131150,306080,429632
131198,306108,429740
131319,306352,429875
131419,306500,429998
131456,306541,430034
131516,306834,430160
131559,306816,430164
131601,306899,430279
131678,306996,430049
131734,307151,430387
131769,307278,430356
131844,307377,430464
131891,307347,430441
131760,306887,430097
131232,305519,429198
130250,304089,428205
129522,303389,427734
129483,303513,427767
129729,303863,427977
130091,304258,428183
130388,304542,428534
130596,304708,428503
130826,305028,428738
131040,305335,429044
131270,305650,429296
131357,305956,429212
131393,305958,429300
131371,305778,429158
131342,305734,429055
131374,305661,429113
131430,305792,429138
131544,305956,429267
131600,306039,429370
131662,306062,429354
131742,306291,429433
131813,306415,429472
131872,306623,429626
131904,306716,429712
131938,306765,429780
131970,306812,429834
132048,306927,429810
132109,306993,429887
132160,307187,429950
132183,307212,430002
132200,307225,429925
132160,307122,429937
131900,306196,429164
131012,304476,428072
130122,303528,427420
129839,303275,427108
129946,303497,427394
130320,303944,427801
130648,304271,427955
130886,304600,428058
131073,304850,428282
131272,305123,428326
131480,305262,428595
131658,305652,428725
131690,305674,428936
131625,305500,428783
131483,305188,428574
131431,305140,428574
131497,305269,428571
131635,305440,428862
131776,305516,428856
131876,305759,428914
131962,306003,429012
132020,306208,429042
132056,306243,429063
132113,306267,429164
132157,306346,429217
132244,306436,429309
132275,306487,429202
132284,306606,429338
132388,306748,429428
132405,306897,429510
132428,306792,429472
132242,306315,429038
131604,304886,428009
130646,303483,427046
130059,302825,426830
129986,302858,426881
130247,303371,427020
130611,303716,427539
130864,303961,427625
131078,304128,427763
131271,304393,427771
131542,304813,428088
131824,305222,428386
131926,305386,428396
131938,305396,428404
131911,305206,428277
131890,305090,428191
131896,305151,428284
131965,305299,428348
132054,305469,428465
132108,305527,428382
132210,305643,428526
132287,305756,428617
132327,305941,428771
132409,306050,428828
132473,306152,428951
132511,306237,428875
132546,306223,428893
132567,306361,428966
132642,306431,429124
132672,306578,429004
132724,306656,429250
132730,306717,429124
132592,306136,428719
131876,304705,427644
130837,303203,426658
130196,302489,426237
130122,302540,426254
130345,302844,426534
130656,303364,426935
130944,303581,426946
131184,303886,427250
131369,304117,427279
131666,304290,427536
131926,304797,427758
132149,305232,428036
132185,305053,427946
132143,305058,428001
132097,304838,427744
132122,304900,427797
132165,304942,427683
132254,305153,427895
132376,305207,427981
132493,305416,428145
132513,305562,428194
132584,305649,428395
132685,305799,428394
132701,305946,428402
132803,306051,428545
132821,306075,428555
132901,306170,428587
132904,306327,428707
132954,306376,428719
132993,306525,428870
133024,306540,428820
133079,306587,428817
133034,306697,428762
132753,305699,428093
131840,303856,426937
130932,302730,426069
130600,302488,425865
130747,302910,426234
131065,303135,426403
131349,303584,426663
131583,303693,426785
131710,303868,426903
131890,304120,427032
132149,304451,427192
132387,304638,427552
132503,304945,427599
132525,305007,427531
132495,304760,427500
132453,304694,427489
132521,304824,427482
132575,304936,427594
132660,305080,427676
132748,305217,427668
132839,305366,427669
132921,305404,427869
132950,305598,427911
133080,305733,428144
133059,305797,428002
133148,305954,428250
133210,306023,428198
133209,306209,428251
133269,306161,428167
133363,306354,428381
133339,306266,428398
133386,306364,428385
133425,306642,428544
133505,306532,428479
133417,306321,428273
132960,304989,427270
132074,303562,426243
131262,302738,425775
131084,302523,425605
131324,302970,425935
131684,303310,426214
131946,303627,426533
132162,303857,426468
132285,304060,426568
132521,304278,426814
132724,304605,427024
132887,304801,427269
132980,304931,427305
132950,304968,427225
132884,304692,427008
132905,304829,427068
132968,304856,427104
133028,304885,427260
133136,305162,427220
133195,305194,427328
133241,305428,427553
133344,305472,427534
133406,305657,427664
133461,305681,427524
133525,305802,427772
133538,305912,427682
133574,306014,427861
133621,306057,427737
133669,306022,427836
133687,306139,428020
133745,306212,427957
133773,306243,427993
133809,306371,428041
133844,306400,428086
133811,306200,427843
133403,305021,426956
132475,303468,425823
131783,302655,425220
131537,302518,425246
131792,302911,425445
132181,303285,425864
132466,303610,425934
132620,303664,426153
132760,304038,426308
132940,304195,426372
133157,304421,426513
133299,304801,426756
133320,304893,426814
133351,304764,426630
133311,304777,426639
133320,304701,426603
133338,304720,426654
133397,304845,426774
133513,304994,426901
133568,305118,426968
133672,305331,427207
133771,305445,427157
133793,305632,427255
133851,305655,427252
133911,305795,427329
133954,305922,427412
133980,305918,427569
134024,305904,427516
134051,306099,427425
134085,306157,427546
134120,306164,427752
134167,306265,427677
134196,306217,427653
134031,305760,427199
133483,304250,426172
132647,303179,425241
132086,302493,424830
132011,302500,424992
132252,302864,425282
132613,303306,425422
132824,303550,425603
132942,303705,425714
133127,303826,425825
133346,304213,426238
133544,304558,426471
133662,304823,426551
133712,304705,426465
133648,304652,426542
133605,304531,426355
133596,304378,426287
133612,304402,426371
133680,304671,426480
133823,304787,426481
133930,305068,426644
133966,305184,426936
134042,305386,426967
134163,305583,427081
134214,305557,427170
134253,305794,427135
134313,305740,427260
134332,305817,427243
134357,305986,427239
134433,305989,427422
134466,306168,427365
134472,306261,427455
134522,306327,427332
134601,306423,427538
134573,306332,427442
134311,305280,426619
133493,303746,425439
132738,302693,424664
132405,302460,424699
132523,302687,424755
132811,303045,425035
133086,303381,425334
133249,303439,425349
133346,303615,425568
133477,303697,425721
133718,304090,425782
133900,304465,425967
134026,304711,426156
134031,304639,426310
134035,304457,426104
134022,304541,426049
134035,304575,426102
134110,304724,426094
134176,304726,426104
134249,304918,426359
134356,305140,426518
134433,305302,426548
134488,305336,426725
134552,305419,426608
134592,305623,426782
134655,305780,426853
134711,305791,426837
134678,305899,426990
134730,306031,427018
134787,306030,426946
134809,306124,426841
134849,306223,426988
134874,306270,427072
134970,306301,427263
134935,306318,427226
134853,305762,426766
134350,304474,425775
133496,303004,424891
132999,302490,424315
132930,302545,424347
133198,302948,424655
133478,303296,424998
133612,303442,425158
133706,303527,425174
133836,303687,425116
134052,303943,425442
134244,304261,425605
134377,304553,425773
134424,304653,426021
134445,304592,425930
134370,304707,425809
134405,304548,425734
134434,304549,425867
134504,304505,425879
134613,304813,425974
134659,304903,426071
134719,305089,426012
134752,305101,426320
134822,305276,426329
134905,305486,426570
134927,305569,426362
134985,305615,426446
135012,305732,426567
135065,305814,426663
135082,305894,426583
135118,305906,426769
135169,306125,426733
135207,306136,426789
135234,306130,426858
135281,306378,426876
135277,306386,426949
135291,306060,426932
134998,305192,426072
134288,303683,424902
133548,302585,424249
133332,302393,424095
133468,302762,424355
133751,303034,424544
133931,303249,424682
134049,303385,424848
134158,303569,424901
134340,303704,425239
134539,304101,425291
134703,304487,425589
134773,304583,425525
134754,304548,425511
134752,304409,425509
134755,304458,425456
134752,304307,425307
134817,304489,425484
134904,304675,425756
134995,304749,425617
135056,304867,425805
135129,305032,425955
135168,305139,426036
135257,305354,426113
135239,305449,426173
135321,305398,426098
135353,305480,426145
135359,305561,426301
135381,305697,426350
135438,305609,426323
135462,305710,426292
135528,305774,426234
135564,305794,426421
135592,305921,426579
135617,305944,426592
135605,306122,426537
135485,305504,426013
134982,304057,424955
134199,302901,424131
133825,302468,423938
133842,302587,423895
134104,303011,424205
134379,303252,424569
134537,303404,424530
134626,303594,424650
134739,303755,424689
134858,304035,424929
135105,304331,425267
135207,304594,425443
135200,304595,425486
135196,304519,425415
135150,304412,425343
135126,304370,425200
135166,304572,425283
135271,304572,425300
135348,304836,425532
135468,304978,425624
135527,305137,425497
135572,305286,425786
135617,305489,425657
135629,305547,425903
135683,305627,425933
135738,305573,426086
135756,305712,426082
135784,305638,426167
135851,305866,426106
135840,305987,426194
135897,305945,426240
135971,305969,426185
135983,306065,426451
135990,306250,426300
136058,306263,426356
135996,306014,426264
135680,304996,425548
135025,303527,424436
134472,302720,423824
134237,302619,423600
134378,302758,423878
134654,303161,424150
134871,303369,424301
134902,303477,424337
134993,303484,424439
135111,303655,424655
135284,304023,424836
135445,304436,425042
135573,304520,425124
135622,304543,424967
135503,304421,424912
135452,304260,425140
135487,304307,424977
135583,304433,425001
135639,304623,425103
135724,304833,425158
135774,304784,425267
135793,304929,425379
135890,304995,425436
135923,305145,425584
135967,305300,425609
136001,305312,425608
136011,305400,425687
136035,305566,425869
136093,305532,425685
136083,305669,425730
136151,305655,425817
136135,305702,425832
136190,305847,425903
136211,305823,426079
136220,305844,425932
136118,305247,425531
135578,303955,424695
134869,302842,423594
134400,302286,423253
134400,302406,423432
134656,302790,423762
134933,303154,424009
135081,303196,423945
135172,303359,424197
135237,303513,424152
135426,303764,424437
135592,304145,424861
135705,304276,424825
135747,304299,424854
135682,304205,424963
135673,304268,424677
135684,304200,424735
135741,304184,424886
135829,304400,424893
135875,304532,425054
135915,304695,425015
136010,304815,425159
136051,304913,425083
136096,304968,425292
136131,305087,425431
136157,305259,425268
136186,305247,425440
136216,305322,425385
136256,305304,425612
136273,305497,425528
136327,305484,425550
136344,305641,425642
136416,305686,425549
136395,305693,425720
136452,305717,425890
136280,305311,425275
135847,304039,424320
135129,302822,423473
134766,302395,423173
134742,302425,423279
134971,302788,423584
135229,303026,423737
135380,303245,423933
135428,303318,423877
135474,303388,424051
135635,303609,424075
135821,303956,424521
135918,304217,424545
135953,304227,424583
135904,304125,424590
135862,304013,424402
135863,303943,424417
135926,304033,424459
135997,304254,424576
136079,304399,424733
136172,304547,424730
136210,304572,424964
136201,304830,424868
136275,304789,424892
136340,305008,425207
136384,305013,425077
136427,305138,425263
136464,305238,425293
136505,305310,425278
136538,305233,425327
136563,305485,425277
136586,305544,425513
136639,305670,425473
136624,305535,425345
136473,304712,424755
135851,303586,423901
135205,302493,423232
134943,302199,422994
135053,302355,423115
